# scale    energy (eV/atom)    pxx    pzz
1 -3.90853152437342 -3171.8446650928 -3424.64328491845
1.00002 -3.90853043894899 -3270.77633723179 -3523.6792350344
1.00004 -3.90852929075835 -3369.67557695962 -3622.68257900429
1.00006 -3.90852807981628 -3468.54239150529 -3721.6533228822
1.00008 -3.90852680613753 -3567.37679026431 -3820.59147434623
1.0001 -3.90852546973686 -3666.17878560994 -3919.49704514719
1.00012 -3.90852407062904 -3764.94838325809 -4018.37004274489
1.00014 -3.90852260882881 -3863.68558829604 -4117.21047336821
1.00016 -3.90852108435094 -3962.39040899171 -4216.01834395264
1.00018 -3.90851949721015 -4061.06285298863 -4314.79366417477
1.0002 -3.90851784742121 -4159.70292833915 -4413.53644019394
1.00022 -3.90851613499885 -4258.31064257538 -4512.24667972803
1.00024 -3.90851435995781 -4356.88600442268 -4610.92439117757
1.00026 -3.90851252231282 -4455.4290203701 -4709.56958193139
1.00028 -3.90851062207863 -4553.93969818279 -4808.18225943761
1.0003 -3.90850865926995 -4652.41804772178 -4906.76243241433
1.00032 -3.90850663390151 -4750.86407512432 -5005.31010680618
1.00034 -3.90850454598803 -4849.27778757249 -5103.82529037111
1.00036 -3.90850239554423 -4947.65919359835 -5202.30799112802
1.00038 -3.90850018258482 -5046.00830231118 -5300.75821783379
1.0004 -3.90849790712451 -5144.32511908178 -5399.17597757963
1.00042 -3.90849556917803 -5242.60965037256 -5497.56127599906
1.00044 -3.90849316876006 -5340.86190325548 -5595.91412038829
1.00046 -3.90849070588532 -5439.0818855499 -5694.23451836942
1.00048 -3.90848818056852 -5537.26960504625 -5792.52247913885
1.0005 -3.90848559282434 -5635.42506966527 -5890.77800800665
1.00052 -3.90848294266749 -5733.54828985421 -5989.00111400948
1.00054 -3.90848023011264 -5831.63927009948 -6087.19180490453
1.00056 -3.90847745517452 -5929.69801829715 -6185.35008731735
1.00058 -3.90847461786778 -6027.72454241878 -6283.47597146032
1.0006 -3.90847171820711 -6125.71885382504 -6381.56946711277
1.00062 -3.90846875620867 -6223.67981880724 -6479.62934572808
1.00064 -3.90846573189464 -6321.60752524473 -6577.65570026756
1.00066 -3.90846264528149 -6419.5028601697 -6675.6494942486
1.00068 -3.90845949638473 -6517.36582805159 -6773.61073306092
1.0007 -3.90845628521986 -6615.19643595847 -6871.53942403096
1.00072 -3.90845301180243 -6712.99469492264 -6969.43557572838
1.00074 -3.90844967614793 -6810.76061214302 -7067.29919442735
1.00076 -3.90844627827187 -6908.49418863846 -7165.13028116904
1.00078 -3.90844281818977 -7006.19543142844 -7262.92884234668
1.0008 -3.90843929591713 -7103.86434747391 -7360.6948865061
1.00082 -3.90843571146947 -7201.50094628634 -7458.42842086625
1.00084 -3.90843206486226 -7299.10523507043 -7556.12945488753
1.00086 -3.90842835611102 -7396.67721829558 -7653.7979938013
1.00088 -3.90842458523125 -7494.21690618837 -7751.43404745527
1.0009 -3.90842075223844 -7591.72430813664 -7849.03762232063
1.00092 -3.90841685714809 -7689.19943180075 -7946.60872687966
1.00094 -3.90841289997566 -7786.64228936278 -8044.14737573515
1.00096 -3.90840888073655 -7884.05375774122 -8141.65406679069
1.00098 -3.90840479944038 -7981.43775905987 -8239.13103084705
1.001 -3.90840065609982 -8078.78898444076 -8336.5752538897
1.00102 -3.90839645073123 -8176.10743856353 -8433.98674485617
1.00104 -3.90839218335094 -8273.39312911649 -8531.36551238157
1.00106 -3.90838785397527 -8370.64606680685 -8628.71156741406
1.00108 -3.90838346262054 -8467.86625634249 -8726.0249134112
1.0011 -3.90837900930308 -8565.05370962587 -8823.30556159652
1.00112 -3.9083744940392 -8662.20843541729 -8920.55352099792
1.00114 -3.90836991684508 -8759.33211926061 -9017.76880142705
1.00116 -3.9083652777272 -8856.44067350215 -9114.95142727784
1.00118 -3.90836057669524 -8953.5150367586 -9212.10138476224
1.0012 -3.90835581376713 -9050.55489390735 -9309.21867922998
1.00122 -3.90835098895991 -9147.5618171919 -9406.30332255122
1.00124 -3.9083461022879 -9244.53533403869 -9503.35532195431
1.00126 -3.90834115376849 -9341.47444294163 -9600.37468300448
1.00128 -3.90833614342187 -9438.37913773717 -9697.36139290337
1.0013 -3.90833107127279 -9535.24943648381 -9794.31547280075
1.00132 -3.90832593734018 -9632.08534987967 -9891.23693536785
1.00134 -3.90832074164264 -9728.88688588107 -9988.12578849644
1.00136 -3.90831548419874 -9825.65405443461 -10084.982042673
1.00138 -3.90831016502706 -9922.38686356006 -10181.8057035522
1.0014 -3.9083047841462 -10019.0853163948 -10278.5967787392
1.00142 -3.90829934157472 -10115.749420152 -10375.3552751643
1.00144 -3.90829383733122 -10212.3791825981 -10472.0812004831
1.00146 -3.90828827143427 -10308.9746133259 -10568.774561882
1.00148 -3.90828264390245 -10405.5357232475 -10665.4353735591
1.0015 -3.90827695475434 -10502.0625168902 -10762.0636398108
1.00152 -3.90827120400851 -10598.5550001769 -10858.6593664852
1.00154 -3.90826539168353 -10695.0131829753 -10955.2225614996
1.00156 -3.90825951779799 -10791.4370774426 -11051.7532394836
1.00158 -3.90825358236931 -10887.8283673787 -11148.2553204905
1.0016 -3.90824758540964 -10984.1868194766 -11244.7282556881
1.00162 -3.90824152693721 -11080.510704788 -11341.1679926957
1.00164 -3.90823540697139 -11176.8000272747 -11437.5745364065
1.00166 -3.90822922553152 -11273.0547974303 -11533.947899603
1.00168 -3.90822298263698 -11369.2750195442 -11630.2880879314
1.0017 -3.90821667830713 -11465.4607009931 -11726.5951062282
1.00172 -3.90821031256134 -11561.6118401962 -11822.8688752278
1.00174 -3.90820388542163 -11657.7283891194 -11919.1086300126
1.00176 -3.90819739690917 -11753.8103483919 -12015.3152690649
1.00178 -3.90819084704417 -11849.8567906172 -12111.4887931582
1.0018 -3.90818423584923 -11945.8682808419 -12207.6292119271
1.00182 -3.90817756334369 -12041.8453109802 -12303.7365441328
1.00184 -3.90817082954662 -12137.7878885952 -12399.8107985354
1.00186 -3.90816403447707 -12233.6960147863 -12495.8519768645
1.00188 -3.90815717815413 -12329.5696960419 -12591.860085285
1.0019 -3.90815026059684 -12425.4089390839 -12687.8351307163
1.00192 -3.90814328182426 -12521.2137546186 -12783.7771238353
1.00194 -3.90813624185546 -12616.9841497223 -12879.6860728407
1.00196 -3.9081291407095 -12712.7201324299 -12975.5619869304
1.00198 -3.90812197840541 -12808.421713132 -13071.4048759584
1.002 -3.90811475496198 -12904.088971514 -13167.214750056
1.00202 -3.90810747039703 -12999.7219661051 -13262.9916180511
1.00204 -3.90810012472824 -13095.3207062424 -13358.7354893885
1.00206 -3.90809271797327 -13190.8851985805 -13454.4463704565
1.00208 -3.9080852501498 -13286.4154513086 -13550.1242693847
1.0021 -3.9080777212755 -13381.9114708872 -13645.7691917233
1.00212 -3.90807013136803 -13477.3732672796 -13741.3811471199
1.00214 -3.90806248044505 -13572.8008512185 -13836.9601461187
1.00216 -3.90805476852422 -13668.1942259778 -13932.5061943196
1.00218 -3.90804699562321 -13763.5534027204 -14028.0193033122
1.0022 -3.90803916175966 -13858.878386981 -14123.4994774769
1.00222 -3.90803126695122 -13954.1691865813 -14218.9467240122
1.00224 -3.90802331121555 -14049.4258105787 -14314.3610521036
1.00226 -3.90801529457027 -14144.6482717562 -14409.7424761358
1.00228 -3.90800721703302 -14239.8365839178 -14505.0910088648
1.0023 -3.90799907862143 -14334.9907530088 -14600.4066552352
1.00232 -3.90799087935312 -14430.1107924482 -14695.689428797
1.00234 -3.90798261924571 -14525.1967115969 -14790.9393434354
1.00236 -3.90797429831681 -14620.248533073 -14886.1564202205
1.00238 -3.90796591658402 -14715.2662939009 -14981.3406959291
1.0024 -3.90795747406495 -14810.2502443461 -15076.4924185882
1.00242 -3.90794897077721 -14905.2002715638 -15171.6114742217
1.00244 -3.9079404067384 -15000.1163403168 -15266.6978236499
1.00246 -3.90793178196612 -15094.998449413 -15361.7514634581
1.00248 -3.90792309648008 -15189.8431980861 -15456.77104344
1.0025 -3.90791435030027 -15284.6539570517 -15551.7579187497
1.00252 -3.90790554344414 -15379.4308761305 -15646.7121689212
1.00254 -3.90789667592915 -15474.173963173 -15741.6338041059
1.00256 -3.90788774777275 -15568.8832288768 -15836.522834115
1.00258 -3.90787875899237 -15663.5586923024 -15931.3792669018
1.0026 -3.90786970960545 -15758.2003652813 -16026.2030773753
1.00262 -3.90786059962942 -15852.8082413821 -16120.9942667601
1.00264 -3.90785142908058 -15947.3830174769 -16215.7536109794
1.00266 -3.90784219797282 -16041.9243385264 -16310.4807287879
1.00268 -3.9078329063232 -16136.4318973816 -16405.1752926006
1.0027 -3.90782355414899 -16230.9057042105 -16499.8373234073
1.00272 -3.90781414146747 -16325.3457544764 -16594.4668059862
1.00274 -3.90780466829593 -16419.7520530718 -16689.063734638
1.00276 -3.90779513465163 -16514.1246010181 -16783.6281155707
1.00278 -3.90778554055186 -16608.463344309 -16878.1596941175
1.0028 -3.90777588601642 -16702.7675717149 -16972.655211131
1.00282 -3.90776617106442 -16797.0380973381 -17067.1183139625
1.00284 -3.90775639571299 -16891.2749221973 -17161.5490039779
1.00286 -3.90774655997928 -16985.4780520826 -17255.9472879174
1.00288 -3.90773666388041 -17079.6474950956 -17350.3131745427
1.0029 -3.90772670743353 -17173.7832572022 -17444.6466684747
1.00292 -3.90771669065574 -17267.8853415324 -17538.9477776487
1.00294 -3.90770661356419 -17361.9537575695 -17633.2165103128
1.00296 -3.90769647617599 -17455.9885143981 -17727.4528719552
1.00298 -3.90768627850824 -17549.9896181468 -17821.6568689628
1.003 -3.90767602057797 -17643.9573224292 -17915.8286449913
1.00302 -3.90766570240129 -17737.8922471912 -18009.9685557348
1.00304 -3.90765532399386 -17831.7944233357 -18104.0766232724
1.00306 -3.90764488537134 -17925.6638588121 -18198.152856334
1.00308 -3.90763438654938 -18019.5005607833 -18292.1972606279
1.0031 -3.90762382754362 -18113.3045347051 -18386.2098409656
1.00312 -3.90761320836973 -18207.0757875453 -18480.1906054286
1.00314 -3.90760252904335 -18300.8141664088 -18574.1387411716
1.00316 -3.90759178958011 -18394.5191486726 -18668.0515162123
1.00318 -3.90758098999552 -18488.1921346932 -18761.9326297628
1.0032 -3.90757013030354 -18581.8353285507 -18855.7820918377
1.00322 -3.90755921051708 -18675.4489158172 -18949.5999106643
1.00324 -3.90754823064903 -18769.0329022089 -19043.3860933416
1.00326 -3.90753719071231 -18862.587294861 -19137.1406455989
1.00328 -3.90752609071981 -18956.1121031086 -19230.8635776958
1.0033 -3.90751493068296 -19049.6073432699 -19324.5549081341
1.00332 -3.90750371061142 -19143.073019121 -19418.21463681
1.00334 -3.90749243051997 -19236.5073600748 -19511.8390564048
1.00336 -3.90748109042377 -19329.9121224393 -19605.4318324537
1.00338 -3.90746969033542 -19423.2873964276 -19698.9931406822
1.0034 -3.90745823026752 -19516.6331962297 -19792.5229937434
1.00342 -3.90744671023265 -19609.9495247097 -19886.0213946669
1.00344 -3.90743513024342 -19703.2363908112 -19979.4883519854
1.00346 -3.90742349031239 -19796.4937996336 -20072.9238742753
1.00348 -3.90741179045215 -19889.7217579525 -20166.3279678105
1.0035 -3.90740003067528 -19982.920275014 -20259.7006400871
1.00352 -3.90738821099435 -20076.0893585293 -20353.0418986823
1.00354 -3.90737633142193 -20169.2290182549 -20446.3517520507
1.00356 -3.90736439197061 -20262.3392624973 -20539.630208802
1.00358 -3.90735239265291 -20355.4200990744 -20632.8772755944
1.0036 -3.90734033348143 -20448.471533652 -20726.0929607052
1.00362 -3.90732821446844 -20541.4938576835 -20819.2779318219
1.00364 -3.90731603562532 -20634.4873038451 -20912.4327220444
1.00366 -3.90730379696325 -20727.4518801411 -21005.5573402612
1.00368 -3.90729149849343 -20820.387593111 -21098.6517908181
1.0037 -3.90727914022704 -20913.294451102 -21191.7160828063
1.00372 -3.90726672217524 -21006.1724631077 -21284.7502221955
1.00374 -3.90725424434923 -21099.021638801 -21377.7542179368
1.00376 -3.90724170675903 -21191.8420631067 -21470.7290342586
1.00378 -3.90722910940912 -21284.6337727728 -21563.6745680976
1.0038 -3.90721645231025 -21377.3968645571 -21656.5898086326
1.00382 -3.90720373546949 -21470.1322429892 -21749.4747871978
1.00384 -3.90719095889846 -21562.8361244123 -21842.3294827279
1.00386 -3.90717812261082 -21655.5110721299 -21935.1539042382
1.00388 -3.90716522661925 -21748.1570928291 -22027.9480629774
1.0039 -3.90715227093648 -21840.7741982006 -22120.7119659789
1.00392 -3.90713925557518 -21933.3623950234 -22213.4456205176
1.00394 -3.90712618054805 -22025.9216903644 -22306.1490332139
1.00396 -3.90711304586777 -22118.4520941024 -22398.822212678
1.00398 -3.90709985154702 -22210.9536131722 -22491.4651681978
1.004 -3.90708659759847 -22303.4262573818 -22584.0779095821
1.00402 -3.90707328403929 -22395.8691664877 -22676.6603901223
1.00404 -3.90705991088784 -22488.2831040749 -22769.2126597356
1.00406 -3.90704647815765 -22580.6681091417 -22861.7347283008
1.00408 -3.90703298586222 -22673.0241902176 -22954.2266036946
1.0041 -3.90701943401507 -22765.3513547247 -23046.6882926859
1.00412 -3.90700582262968 -22857.6496116389 -23139.1198048705
1.00414 -3.90699215171957 -22949.9189716842 -23231.5211501991
1.00416 -3.90697842129823 -23042.1594392997 -23323.8923323453
1.00418 -3.90696463137913 -23134.3710232066 -23416.2333590321
1.0042 -3.90695078197578 -23226.5537314735 -23508.5442381428
1.00422 -3.90693687310167 -23318.707570707 -23600.8249769665
1.00424 -3.90692290477026 -23410.8325497996 -23693.0755873618
1.00426 -3.90690887699505 -23502.9286762038 -23785.2960735512
1.00428 -3.90689478978952 -23594.9959590939 -23877.4864458526
1.0043 -3.90688064316712 -23687.0344062941 -23969.6467109294
1.00432 -3.90686643714135 -23779.0440254674 -24061.7768774381
1.00434 -3.90685217172565 -23871.0248237503 -24153.8769508589
1.00436 -3.9068378469335 -23962.9768112545 -24245.946940698
1.00438 -3.90682346277835 -24054.8999972108 -24337.9868562296
1.0044 -3.90680901927365 -24146.794390067 -24429.9967047434
1.00442 -3.90679451643284 -24238.6599987071 -24521.9764971421
1.00444 -3.90677995426937 -24330.4968268337 -24613.9262363654
1.00446 -3.90676533279669 -24422.3048827521 -24705.8459296748
1.00448 -3.90675065202823 -24514.0841757656 -24797.7355860922
1.0045 -3.90673591197705 -24605.8367966129 -24889.5960410085
1.00452 -3.90672111265019 -24697.5654433538 -24981.428369117
1.00454 -3.90670625405946 -24789.2647051104 -25073.2304271403
1.00456 -3.90669133621912 -24880.9345877773 -25165.0022215021
1.00458 -3.90667635914342 -24972.5750993814 -25256.7437609226
1.0046 -3.90666132284663 -25064.1862488439 -25348.4550548183
1.00462 -3.90664622734298 -25155.7680439083 -25440.13611061
1.00464 -3.90663107264673 -25247.3204910746 -25531.786933899
1.00466 -3.90661585877212 -25338.8435999103 -25623.4075341855
1.00468 -3.9066005857334 -25430.3373764076 -25714.997918103
1.0047 -3.90658525354481 -25521.8018279128 -25806.5580931307
1.00472 -3.90656986222058 -25613.2369627894 -25898.0880669287
1.00474 -3.90655441177495 -25704.6427886949 -25989.5878473924
1.00476 -3.90653890222217 -25796.0193144691 -26081.0574431393
1.00478 -3.90652333357644 -25887.3665462969 -26172.4968592329
1.0048 -3.90650770585378 -25978.683929663 -26263.9018176949
1.00482 -3.9064920190707 -26069.972582362 -26355.2788609722
1.00484 -3.90647627323488 -26161.2329594321 -26446.6303056883
1.00486 -3.90646046835931 -26252.4639421587 -26537.951065161
1.00488 -3.90644460445887 -26343.6655402463 -26629.2411485771
1.0049 -3.90642868154845 -26434.8377598771 -26720.5005647159
1.00492 -3.90641269964292 -26525.980606687 -26811.7293171529
1.00494 -3.90639665875715 -26617.0940906009 -26902.9274163943
1.00496 -3.90638055890604 -26708.178211238 -26994.0948689252
1.00498 -3.9063644001069 -26799.2328756576 -27085.2316812891
1.005 -3.90634818237648 -26890.2582019805 -27176.3378627356
1.00502 -3.90633190573088 -26981.2509541659 -27267.4115774805
1.00504 -3.9063155701927 -27072.2110182258 -27358.4527639234
1.00506 -3.90629917577867 -27163.1412260792 -27449.4630353171
1.00508 -3.90628272250438 -27254.0415819097 -27540.4423953522
1.0051 -3.90626621038546 -27344.9120942014 -27631.3908523109
1.00512 -3.90624963943976 -27435.7476174093 -27722.3083600523
1.00514 -3.90623300968528 -27526.5533628338 -27813.1949858376
1.00516 -3.90621632113747 -27617.3294457173 -27904.0507344183
1.00518 -3.90619957381177 -27708.076642652 -27994.8795818374
1.0052 -3.90618276772532 -27798.7863743198 -28085.6819046655
1.00522 -3.90616590290792 -27889.4525731406 -28176.4525560917
1.00524 -3.90614897937995 -27980.0871217664 -28267.1915529662
1.00526 -3.90613199715854 -28070.6900315808 -28357.8989039813
1.00528 -3.90611495626079 -28161.2613031203 -28448.5746125824
1.0053 -3.90609785670384 -28251.8009433884 -28539.2186865605
1.00532 -3.90608069850478 -28342.3089625438 -28629.8311344659
1.00534 -3.90606348168074 -28432.7853637957 -28720.4119609804
1.00536 -3.90604620624862 -28523.2309153351 -28810.9627611819
1.00538 -3.90602887221946 -28613.6476972632 -28901.4878661133
1.0054 -3.90601147960806 -28704.0325523817 -28991.9806734258
1.00542 -3.90599402843237 -28794.3854915017 -29082.4411956426
1.00544 -3.90597651871032 -28884.706518781 -29172.8694352719
1.00546 -3.90595895045985 -28974.9956451173 -29263.2654036874
1.00548 -3.90594132369889 -29065.2528756983 -29353.6291052795
1.0055 -3.90592363844538 -29155.4782196656 -29443.9605482937
1.00552 -3.90590589471722 -29245.6716861409 -29534.2597406227
1.00554 -3.90588809253234 -29335.8332862284 -29624.5266949396
1.00556 -3.90587023190864 -29425.9630325782 -29714.7614263999
1.00558 -3.90585231286403 -29516.060929366 -29804.9639376952
1.0056 -3.90583433541642 -29606.1269871319 -29895.1342390778
1.00562 -3.90581629958371 -29696.1612167507 -29985.2723416031
1.00564 -3.90579820538647 -29786.1609516596 -30075.3719902405
1.00566 -3.9057800528495 -29876.1277625841 -30165.4368148603
1.00568 -3.90576184199179 -29966.0626787002 -30255.4689622921
1.0057 -3.90574357283206 -30055.9656358754 -30345.4684510206
1.00572 -3.90572524538902 -30145.8366050021 -30435.4351802862
1.00574 -3.9057068596814 -30235.6755912595 -30525.3691399262
1.00576 -3.90568841572791 -30325.4826020222 -30615.2703369226
1.00578 -3.90566991354725 -30415.257643849 -30705.1387791817
1.0058 -3.905651353158 -30505.0007296381 -30794.9745699929
1.00582 -3.90563273457782 -30594.7118781821 -30884.777902855
1.00584 -3.90561405782401 -30684.3911308377 -30974.5487943421
1.00586 -3.90559532291232 -30774.0415825603 -31064.2865929734
1.00588 -3.90557652985552 -30863.6616608671 -31153.9911721446
1.0059 -3.90555767866988 -30953.2496489015 -31243.6633776667
1.00592 -3.90553876937189 -31042.8055561062 -31333.3032174808
1.00594 -3.90551980197806 -31132.3293892081 -31422.9106993464
1.00596 -3.90550077650491 -31221.8211555527 -31512.4858322433
1.00598 -3.90548169296889 -31311.2808650652 -31602.0286234409
1.006 -3.90546255138652 -31400.7085229728 -31691.5390765553
1.00602 -3.90544335177429 -31490.1041347165 -31781.0171985879
1.00604 -3.90542409414733 -31579.4680406132 -31870.4630179946
1.00606 -3.90540477851873 -31668.8000368137 -31959.8765308195
1.00608 -3.9053854049047 -31758.100022157 -32049.2577363363
1.0061 -3.90536597332158 -31847.3680045735 -32138.606642982
1.00612 -3.90534648378569 -31936.6039954108 -32227.9232601179
1.00614 -3.90532693631337 -32025.8079982685 -32317.2075934403
1.00616 -3.90530733092093 -32114.980018223 -32406.4596472383
1.00618 -3.90528766762472 -32204.1200635019 -32495.6794290693
1.0062 -3.90526794644107 -32293.2281427907 -32584.8669467584
1.00622 -3.90524816738629 -32382.3042606165 -32674.0222086819
1.00624 -3.90522833047671 -32471.3484265977 -32763.145222937
1.00626 -3.90520843572864 -32560.3606498529 -32852.2359986735
1.00628 -3.90518848315841 -32649.3409371137 -32941.2945405871
1.0063 -3.90516847278232 -32738.2892958037 -33030.3208566535
1.00632 -3.90514840461668 -32827.2057403134 -33119.3149551429
1.00634 -3.90512827867779 -32916.0902782846 -33208.2768438624
1.00636 -3.90510809498197 -33004.9429226756 -33297.2065253914
1.00638 -3.90508785354551 -33093.7636814102 -33386.1040126871
1.0064 -3.90506755438473 -33182.552550684 -33474.969326073
1.00642 -3.90504719751592 -33271.3095412108 -33563.8024869485
1.00644 -3.90502678295538 -33360.0346577515 -33652.6034982912
1.00646 -3.90500631071941 -33448.7279085392 -33741.3723644248
